  # Bin [m], Precipitate density distribution [/m^4]
                            0.371535E-09                            0.477510E+00
                            0.436516E-09                            0.349399E+00
                            0.512861E-09                            0.267828E+00
                            0.602560E-09                            0.213589E+00
                            0.707946E-09                            0.176170E+00
                            0.831764E-09                            0.149532E+00
                            0.977237E-09                            0.130058E+00
                            0.114815E-08                            0.115494E+00
                            0.134896E-08                            0.104391E+00
                            0.158489E-08                            0.957852E-01
                            0.186209E-08                            0.890218E-01
                            0.218776E-08                            0.836428E-01
                            0.257040E-08                            0.793213E-01
                            0.301995E-08                            0.758195E-01
                            0.354813E-08                            0.729610E-01
                            0.416869E-08                            0.706132E-01
                            0.489779E-08                            0.686744E-01
                            0.575440E-08                            0.670662E-01
                            0.676083E-08                            0.657272E-01
                            0.794328E-08                            0.646085E-01
                            0.933254E-08                            0.636714E-01
                            0.109648E-07                            0.628845E-01
                            0.128825E-07                            0.622224E-01
                            0.151356E-07                            0.616644E-01
                            0.177828E-07                            0.611934E-01
                            0.208930E-07                            0.607953E-01
                            0.245471E-07                            0.604585E-01
                            0.288403E-07                            0.601734E-01
                            0.338844E-07                            0.599317E-01
                            0.398107E-07                            0.597268E-01
                            0.467735E-07                            0.595529E-01
                            0.549541E-07                            0.594054E-01
                            0.645654E-07                            0.592800E-01
                            0.758578E-07                            0.591736E-01
                            0.891251E-07                            0.590831E-01
                            0.104713E-06                            0.590062E-01
                            0.123027E-06                            0.589409E-01
                            0.144544E-06                            0.588853E-01
                            0.169824E-06                            0.588380E-01
                            0.199526E-06                            0.587978E-01
                            0.234423E-06                            0.587636E-01
                            0.275423E-06                            0.587345E-01
                            0.323594E-06                            0.587098E-01
                            0.380189E-06                            0.586888E-01
                            0.446684E-06                            0.586708E-01
                            0.524807E-06                            0.586556E-01
                            0.616595E-06                            0.586426E-01
                            0.724436E-06                            0.586316E-01
                            0.851138E-06                            0.586222E-01
                            0.100000E-05                            0.586142E-01
                            0.117490E-05                            0.586074E-01
                            0.138038E-05                            0.586016E-01
                            0.162181E-05                            0.585967E-01
                            0.190546E-05                            0.585925E-01
                            0.223872E-05                            0.585889E-01
                            0.263027E-05                            0.585859E-01
                            0.309030E-05                            0.585833E-01
                            0.363078E-05                            0.585811E-01
                            0.426580E-05                            0.585792E-01
                            0.501187E-05                            0.585776E-01
