  # Bin [m], Precipitate density distribution [/m^4]
                            0.512861E-09                            0.000000E+00
                            0.524807E-09                            0.261642E-02
                            0.537032E-09                            0.342507E-02
                            0.549541E-09                            0.442462E-02
                            0.562341E-09                            0.564061E-02
                            0.575440E-09                            0.709609E-02
                            0.588844E-09                            0.880959E-02
                            0.602560E-09                            0.107928E-01
                            0.616595E-09                            0.130485E-01
                            0.630957E-09                            0.155678E-01
                            0.645654E-09                            0.183290E-01
                            0.660693E-09                            0.212957E-01
                            0.676083E-09                            0.244169E-01
                            0.691831E-09                            0.276269E-01
                            0.707946E-09                            0.308473E-01
                            0.724436E-09                            0.339896E-01
                            0.741310E-09                            0.369588E-01
                            0.758578E-09                            0.396582E-01
                            0.776247E-09                            0.419945E-01
                            0.794328E-09                            0.438829E-01
                            0.812831E-09                            0.452524E-01
                            0.831764E-09                            0.460502E-01
                            0.851138E-09                            0.462450E-01
                            0.870964E-09                            0.458291E-01
                            0.891251E-09                            0.448190E-01
                            0.912011E-09                            0.432540E-01
                            0.933254E-09                            0.411940E-01
                            0.954993E-09                            0.387155E-01
                            0.977237E-09                            0.359070E-01
                            0.100000E-08                            0.328638E-01
                            0.102329E-08                            0.296824E-01
                            0.104713E-08                            0.264560E-01
                            0.107152E-08                            0.232698E-01
                            0.109648E-08                            0.201978E-01
                            0.112202E-08                            0.173006E-01
                            0.114815E-08                            0.146238E-01
                            0.117490E-08                            0.121984E-01
                            0.120226E-08                            0.100413E-01
                            0.123027E-08                            0.815679E-02
                            0.125893E-08                            0.653872E-02
                            0.128825E-08                            0.517261E-02
                            0.131826E-08                            0.403804E-02
                            0.134896E-08                            0.311082E-02
                            0.138038E-08                            0.236495E-02
                            0.141254E-08                            0.177424E-02
                            0.144544E-08                            0.131355E-02
                            0.147911E-08                            0.959679E-03
                            0.151356E-08                            0.691907E-03
                            0.154882E-08                            0.492281E-03
                            0.158489E-08                            0.345638E-03
                            0.162181E-08                            0.239483E-03
                            0.165959E-08                            0.163746E-03
                            0.169824E-08                            0.110487E-03
                            0.173780E-08                            0.735686E-04
                            0.177828E-08                            0.483414E-04
                            0.181970E-08                            0.313465E-04
                            0.186209E-08                            0.200587E-04
                            0.190546E-08                            0.126666E-04
                            0.194984E-08                            0.789334E-05
                            0.199526E-08                            0.485406E-05
                            0.204174E-08                            0.294573E-05
                            0.208930E-08                            0.176410E-05
                            0.213796E-08                            0.104255E-05
                            0.218776E-08                            0.608019E-06
                            0.223872E-08                            0.349928E-06
                            0.229087E-08                            0.198740E-06
                            0.234423E-08                            0.111387E-06
                            0.239883E-08                            0.616064E-07
                            0.245471E-08                            0.336250E-07
                            0.251189E-08                            0.181110E-07
                            0.257040E-08                            0.962642E-08
                            0.263027E-08                            0.504930E-08
                            0.269153E-08                            0.261362E-08
                            0.275423E-08                            0.133504E-08
                            0.281838E-08                            0.672966E-09
                            0.288403E-08                            0.334760E-09
                            0.295121E-08                            0.164330E-09
                            0.301995E-08                            0.796060E-10
                            0.309030E-08                            0.380555E-10
                            0.316228E-08                            0.179528E-10
                            0.323594E-08                            0.835778E-11
                            0.331131E-08                            0.383966E-11
                            0.338844E-08                            0.174076E-11
                            0.346737E-08                            0.778803E-12
                            0.354813E-08                            0.343843E-12
                            0.363078E-08                            0.149808E-12
                            0.371535E-08                            0.644104E-13
                            0.380189E-08                            0.273287E-13
                            0.389045E-08                            0.114426E-13
                            0.398107E-08                            0.472799E-14
                            0.407380E-08                            0.192784E-14
                            0.416869E-08                            0.775725E-15
                            0.426580E-08                            0.308027E-15
                            0.436516E-08                            0.120702E-15
                            0.446684E-08                            0.466747E-16
                            0.457088E-08                            0.178112E-16
                            0.467735E-08                            0.670730E-17
                            0.478630E-08                            0.249257E-17
                            0.489779E-08                            0.914089E-18
                            0.501187E-08                            0.330807E-18
