  # Bin [m], Precipitate density distribution [/m^4]
                            0.320627E-09                            0.140058E-01
                            0.325087E-09                            0.137622E-01
                            0.329610E-09                            0.135262E-01
                            0.334195E-09                            0.132973E-01
                            0.338844E-09                            0.130754E-01
                            0.343558E-09                            0.128602E-01
                            0.348337E-09                            0.126514E-01
                            0.353183E-09                            0.124487E-01
                            0.358096E-09                            0.122521E-01
                            0.363078E-09                            0.120611E-01
                            0.368129E-09                            0.118757E-01
                            0.373250E-09                            0.116957E-01
                            0.378443E-09                            0.115208E-01
                            0.383707E-09                            0.113508E-01
                            0.389045E-09                            0.111857E-01
                            0.394457E-09                            0.110251E-01
                            0.399945E-09                            0.108690E-01
                            0.405509E-09                            0.107172E-01
                            0.411150E-09                            0.105696E-01
                            0.416869E-09                            0.104260E-01
                            0.422669E-09                            0.102863E-01
                            0.428549E-09                            0.101503E-01
                            0.434510E-09                            0.100180E-01
                            0.440555E-09                            0.988915E-02
                            0.446684E-09                            0.976370E-02
                            0.452898E-09                            0.964154E-02
                            0.459198E-09                            0.952255E-02
                            0.465586E-09                            0.940662E-02
                            0.472063E-09                            0.929367E-02
                            0.478630E-09                            0.918360E-02
                            0.485289E-09                            0.907632E-02
                            0.492040E-09                            0.897174E-02
                            0.498884E-09                            0.886977E-02
                            0.505825E-09                            0.877033E-02
                            0.512861E-09                            0.867336E-02
                            0.519996E-09                            0.857876E-02
                            0.527230E-09                            0.848647E-02
                            0.534564E-09                            0.839642E-02
                            0.542001E-09                            0.830854E-02
                            0.549541E-09                            0.822277E-02
                            0.557186E-09                            0.813904E-02
                            0.564937E-09                            0.805730E-02
                            0.572796E-09                            0.797748E-02
                            0.580764E-09                            0.789954E-02
                            0.588844E-09                            0.782340E-02
                            0.597035E-09                            0.774903E-02
                            0.605341E-09                            0.767638E-02
                            0.613762E-09                            0.760539E-02
                            0.622300E-09                            0.753601E-02
                            0.630957E-09                            0.746821E-02
                            0.639735E-09                            0.740193E-02
                            0.648634E-09                            0.733714E-02
                            0.657658E-09                            0.727380E-02
                            0.666807E-09                            0.721186E-02
                            0.676083E-09                            0.715128E-02
                            0.685488E-09                            0.709204E-02
                            0.695024E-09                            0.703409E-02
                            0.704693E-09                            0.697740E-02
                            0.714496E-09                            0.692193E-02
                            0.724436E-09                            0.686766E-02
                            0.734514E-09                            0.681454E-02
                            0.744732E-09                            0.676256E-02
                            0.755092E-09                            0.671168E-02
                            0.765597E-09                            0.666188E-02
                            0.776247E-09                            0.661312E-02
                            0.787046E-09                            0.656537E-02
                            0.797995E-09                            0.651863E-02
                            0.809096E-09                            0.647284E-02
                            0.820352E-09                            0.642800E-02
                            0.831764E-09                            0.638408E-02
                            0.843335E-09                            0.634106E-02
                            0.855067E-09                            0.629891E-02
                            0.866962E-09                            0.625762E-02
                            0.879023E-09                            0.621715E-02
                            0.891251E-09                            0.617750E-02
                            0.903649E-09                            0.613864E-02
                            0.916220E-09                            0.610055E-02
                            0.928966E-09                            0.606322E-02
                            0.941890E-09                            0.602662E-02
                            0.954993E-09                            0.599074E-02
                            0.968278E-09                            0.595556E-02
                            0.981748E-09                            0.592107E-02
                            0.995405E-09                            0.588724E-02
                            0.100925E-08                            0.585407E-02
                            0.102329E-08                            0.582154E-02
                            0.103753E-08                            0.578963E-02
                            0.105196E-08                            0.575833E-02
                            0.106660E-08                            0.572763E-02
                            0.108143E-08                            0.569750E-02
                            0.109648E-08                            0.566795E-02
                            0.111173E-08                            0.563895E-02
                            0.112720E-08                            0.561050E-02
                            0.114288E-08                            0.558257E-02
                            0.115878E-08                            0.555517E-02
                            0.117490E-08                            0.552827E-02
                            0.119124E-08                            0.550187E-02
                            0.120781E-08                            0.547595E-02
                            0.122462E-08                            0.545051E-02
                            0.124165E-08                            0.542554E-02
                            0.125893E-08                            0.540102E-02
                            0.127644E-08                            0.537694E-02
                            0.129420E-08                            0.535330E-02
                            0.131220E-08                            0.533009E-02
                            0.133045E-08                            0.530729E-02
                            0.134896E-08                            0.528490E-02
                            0.136773E-08                            0.526291E-02
                            0.138676E-08                            0.524132E-02
                            0.140605E-08                            0.522010E-02
                            0.142561E-08                            0.519926E-02
                            0.144544E-08                            0.517879E-02
                            0.146555E-08                            0.515868E-02
                            0.148594E-08                            0.513892E-02
                            0.150661E-08                            0.511950E-02
                            0.152757E-08                            0.510043E-02
                            0.154882E-08                            0.508168E-02
                            0.157036E-08                            0.506326E-02
                            0.159221E-08                            0.504516E-02
                            0.161436E-08                            0.502737E-02
                            0.163682E-08                            0.500989E-02
                            0.165959E-08                            0.499270E-02
                            0.168267E-08                            0.497581E-02
                            0.170608E-08                            0.495921E-02
                            0.172982E-08                            0.494289E-02
                            0.175388E-08                            0.492684E-02
                            0.177828E-08                            0.491107E-02
                            0.180302E-08                            0.489556E-02
                            0.182810E-08                            0.488031E-02
                            0.185353E-08                            0.486532E-02
                            0.187932E-08                            0.485058E-02
                            0.190546E-08                            0.483608E-02
                            0.193197E-08                            0.482183E-02
                            0.195884E-08                            0.480781E-02
                            0.198609E-08                            0.479403E-02
                            0.201372E-08                            0.478047E-02
                            0.204174E-08                            0.476714E-02
                            0.207014E-08                            0.475403E-02
                            0.209894E-08                            0.474113E-02
                            0.212814E-08                            0.472844E-02
                            0.215774E-08                            0.471596E-02
                            0.218776E-08                            0.470368E-02
                            0.221820E-08                            0.469161E-02
                            0.224905E-08                            0.467973E-02
                            0.228034E-08                            0.466804E-02
                            0.231206E-08                            0.465654E-02
                            0.234423E-08                            0.464522E-02
                            0.237684E-08                            0.463409E-02
                            0.240991E-08                            0.462314E-02
                            0.244343E-08                            0.461236E-02
                            0.247742E-08                            0.460176E-02
                            0.251189E-08                            0.459132E-02
                            0.254683E-08                            0.458106E-02
                            0.258226E-08                            0.457095E-02
                            0.261818E-08                            0.456100E-02
                            0.265461E-08                            0.455122E-02
                            0.269153E-08                            0.454159E-02
                            0.272898E-08                            0.453210E-02
                            0.276694E-08                            0.452277E-02
                            0.280543E-08                            0.451359E-02
                            0.284446E-08                            0.450455E-02
                            0.288403E-08                            0.449565E-02
                            0.292415E-08                            0.448689E-02
                            0.296483E-08                            0.447827E-02
                            0.300608E-08                            0.446978E-02
                            0.304789E-08                            0.446143E-02
                            0.309030E-08                            0.445320E-02
                            0.313329E-08                            0.444511E-02
                            0.317687E-08                            0.443713E-02
                            0.322107E-08                            0.442929E-02
                            0.326588E-08                            0.442156E-02
                            0.331131E-08                            0.441395E-02
                            0.335738E-08                            0.440646E-02
                            0.340408E-08                            0.439908E-02
                            0.345144E-08                            0.439182E-02
                            0.349945E-08                            0.438467E-02
                            0.354813E-08                            0.437763E-02
                            0.359749E-08                            0.437070E-02
                            0.364754E-08                            0.436387E-02
                            0.369828E-08                            0.435715E-02
                            0.374973E-08                            0.435052E-02
                            0.380189E-08                            0.434400E-02
                            0.385478E-08                            0.433758E-02
                            0.390841E-08                            0.433126E-02
                            0.396278E-08                            0.432503E-02
                            0.401791E-08                            0.431890E-02
                            0.407380E-08                            0.431285E-02
                            0.413048E-08                            0.430690E-02
                            0.418794E-08                            0.430104E-02
                            0.424620E-08                            0.429527E-02
                            0.430527E-08                            0.428959E-02
                            0.436516E-08                            0.428399E-02
                            0.442588E-08                            0.427847E-02
                            0.448745E-08                            0.427304E-02
                            0.454988E-08                            0.426768E-02
                            0.461318E-08                            0.426241E-02
                            0.467735E-08                            0.425722E-02
                            0.474242E-08                            0.425210E-02
                            0.480839E-08                            0.424706E-02
                            0.487528E-08                            0.424210E-02
                            0.494311E-08                            0.423721E-02
                            0.501187E-08                            0.423239E-02
                            0.508159E-08                            0.422764E-02
                            0.515229E-08                            0.422296E-02
                            0.522396E-08                            0.421836E-02
                            0.529663E-08                            0.421382E-02
                            0.537032E-08                            0.420935E-02
                            0.544503E-08                            0.420494E-02
                            0.552077E-08                            0.420060E-02
                            0.559758E-08                            0.419632E-02
                            0.567545E-08                            0.419211E-02
                            0.575440E-08                            0.418795E-02
                            0.583445E-08                            0.418386E-02
                            0.591562E-08                            0.417983E-02
                            0.599791E-08                            0.417586E-02
                            0.608135E-08                            0.417195E-02
                            0.616595E-08                            0.416809E-02
                            0.625173E-08                            0.416429E-02
                            0.633870E-08                            0.416054E-02
                            0.642688E-08                            0.415685E-02
                            0.651628E-08                            0.415322E-02
                            0.660693E-08                            0.414963E-02
                            0.669885E-08                            0.414610E-02
                            0.679204E-08                            0.414262E-02
                            0.688652E-08                            0.413920E-02
                            0.698232E-08                            0.413582E-02
                            0.707946E-08                            0.413249E-02
                            0.717794E-08                            0.412920E-02
                            0.727780E-08                            0.412597E-02
                            0.737904E-08                            0.412278E-02
                            0.748170E-08                            0.411964E-02
                            0.758578E-08                            0.411655E-02
                            0.769130E-08                            0.411350E-02
                            0.779830E-08                            0.411049E-02
                            0.790679E-08                            0.410752E-02
                            0.801678E-08                            0.410460E-02
                            0.812831E-08                            0.410173E-02
                            0.824138E-08                            0.409889E-02
                            0.835603E-08                            0.409609E-02
                            0.847227E-08                            0.409334E-02
                            0.859014E-08                            0.409062E-02
                            0.870964E-08                            0.408794E-02
                            0.883080E-08                            0.408530E-02
                            0.895365E-08                            0.408270E-02
                            0.907821E-08                            0.408014E-02
                            0.920450E-08                            0.407761E-02
                            0.933254E-08                            0.407512E-02
                            0.946237E-08                            0.407266E-02
