 # Time [s], Diffusion coefficient [m^2/s] 
                            0.000000E+00                            0.356852E-20
                            0.100000E-02                            0.356859E-20
                            0.101000E+00                            0.357505E-20
                            0.201000E+00                            0.358152E-20
                            0.301000E+00                            0.358799E-20
                            0.401000E+00                            0.359445E-20
                            0.501000E+00                            0.360092E-20
                            0.601000E+00                            0.360739E-20
                            0.701000E+00                            0.361385E-20
                            0.801000E+00                            0.362032E-20
                            0.901000E+00                            0.362679E-20
                            0.100100E+01                            0.363325E-20
                            0.110100E+01                            0.363972E-20
                            0.120100E+01                            0.364619E-20
                            0.130100E+01                            0.365265E-20
                            0.140100E+01                            0.365912E-20
                            0.150100E+01                            0.366559E-20
                            0.160100E+01                            0.367205E-20
                            0.170100E+01                            0.367852E-20
                            0.180100E+01                            0.368499E-20
                            0.190100E+01                            0.369145E-20
                            0.200100E+01                            0.369792E-20
                            0.210100E+01                            0.370438E-20
                            0.220100E+01                            0.371085E-20
                            0.230100E+01                            0.371732E-20
                            0.240100E+01                            0.372378E-20
                            0.250100E+01                            0.373025E-20
                            0.260100E+01                            0.373671E-20
                            0.270100E+01                            0.374318E-20
                            0.280100E+01                            0.374964E-20
                            0.290100E+01                            0.375611E-20
                            0.300100E+01                            0.376257E-20
                            0.310100E+01                            0.376904E-20
                            0.320100E+01                            0.377551E-20
                            0.330100E+01                            0.378197E-20
                            0.340100E+01                            0.378844E-20
                            0.350100E+01                            0.379490E-20
                            0.360100E+01                            0.380137E-20
                            0.370100E+01                            0.380783E-20
                            0.380100E+01                            0.381430E-20
                            0.390100E+01                            0.382076E-20
                            0.400100E+01                            0.382723E-20
                            0.410100E+01                            0.383369E-20
                            0.420100E+01                            0.384016E-20
                            0.430100E+01                            0.384662E-20
                            0.440100E+01                            0.385309E-20
                            0.450100E+01                            0.385955E-20
                            0.460100E+01                            0.386602E-20
                            0.470100E+01                            0.387248E-20
                            0.480100E+01                            0.387895E-20
                            0.490100E+01                            0.388541E-20
                            0.500100E+01                            0.389187E-20
                            0.510100E+01                            0.389834E-20
                            0.520100E+01                            0.390480E-20
                            0.530100E+01                            0.391127E-20
                            0.540100E+01                            0.391773E-20
                            0.550100E+01                            0.392420E-20
                            0.560100E+01                            0.393066E-20
                            0.570100E+01                            0.393712E-20
                            0.580100E+01                            0.394359E-20
                            0.590100E+01                            0.395005E-20
                            0.600100E+01                            0.395652E-20
                            0.610100E+01                            0.396298E-20
                            0.620100E+01                            0.396944E-20
                            0.630100E+01                            0.397591E-20
                            0.640100E+01                            0.398237E-20
                            0.650100E+01                            0.398883E-20
                            0.660100E+01                            0.399530E-20
                            0.670100E+01                            0.400176E-20
                            0.680100E+01                            0.400822E-20
                            0.690100E+01                            0.401469E-20
                            0.700100E+01                            0.402115E-20
                            0.710100E+01                            0.402761E-20
                            0.720100E+01                            0.403408E-20
                            0.730100E+01                            0.404054E-20
                            0.740100E+01                            0.404700E-20
                            0.750100E+01                            0.405347E-20
                            0.760100E+01                            0.405993E-20
                            0.770100E+01                            0.406639E-20
                            0.780100E+01                            0.407286E-20
                            0.790100E+01                            0.407932E-20
                            0.800100E+01                            0.408578E-20
                            0.810100E+01                            0.409224E-20
                            0.820100E+01                            0.409871E-20
                            0.830100E+01                            0.410517E-20
                            0.840100E+01                            0.411163E-20
                            0.850100E+01                            0.411810E-20
                            0.860100E+01                            0.412456E-20
                            0.870100E+01                            0.413102E-20
                            0.880100E+01                            0.413748E-20
                            0.890100E+01                            0.414395E-20
                            0.900100E+01                            0.415041E-20
                            0.910100E+01                            0.415687E-20
                            0.920100E+01                            0.416333E-20
                            0.930100E+01                            0.416979E-20
                            0.940100E+01                            0.417626E-20
                            0.950100E+01                            0.418272E-20
                            0.960100E+01                            0.418918E-20
                            0.970100E+01                            0.419564E-20
                            0.980100E+01                            0.420210E-20
                            0.990100E+01                            0.420857E-20
                            0.100010E+02                            0.421503E-20
