 # Time [s], c_{ex}/c_{th}, total number of produced vacancies/c_{th}, total number of annihilated vacancies /c_{th}
                            0.000000E+00                            0.000000E+00                            0.000000E+00                            0.000000E+00
                            0.100000E-02                            0.181226E-04                            0.181226E-01                            0.000000E+00
                            0.101000E+00                            0.183038E-02                            0.181226E-01                            0.137110E-06
                            0.201000E+00                            0.364262E-02                            0.181226E-01                            0.287778E-06
                            0.301000E+00                            0.545485E-02                            0.181226E-01                            0.438446E-06
                            0.401000E+00                            0.726706E-02                            0.181226E-01                            0.589112E-06
                            0.501000E+00                            0.907925E-02                            0.181226E-01                            0.739777E-06
                            0.601000E+00                            0.108914E-01                            0.181226E-01                            0.890441E-06
                            0.701000E+00                            0.127036E-01                            0.181226E-01                            0.104110E-05
                            0.801000E+00                            0.145158E-01                            0.181226E-01                            0.119176E-05
                            0.901000E+00                            0.163279E-01                            0.181226E-01                            0.134242E-05
                            0.100100E+01                            0.181400E-01                            0.181226E-01                            0.149308E-05
                            0.110100E+01                            0.199521E-01                            0.181226E-01                            0.164374E-05
                            0.120100E+01                            0.217642E-01                            0.181226E-01                            0.179440E-05
                            0.130100E+01                            0.235763E-01                            0.181226E-01                            0.194505E-05
                            0.140100E+01                            0.253883E-01                            0.181226E-01                            0.209571E-05
                            0.150100E+01                            0.272004E-01                            0.181226E-01                            0.224636E-05
                            0.160100E+01                            0.290124E-01                            0.181226E-01                            0.239701E-05
                            0.170100E+01                            0.308244E-01                            0.181226E-01                            0.254766E-05
                            0.180100E+01                            0.326364E-01                            0.181226E-01                            0.269831E-05
                            0.190100E+01                            0.344484E-01                            0.181226E-01                            0.284896E-05
                            0.200100E+01                            0.362604E-01                            0.181226E-01                            0.299960E-05
                            0.210100E+01                            0.380723E-01                            0.181226E-01                            0.315025E-05
                            0.220100E+01                            0.398843E-01                            0.181226E-01                            0.330089E-05
                            0.230100E+01                            0.416962E-01                            0.181226E-01                            0.345153E-05
                            0.240100E+01                            0.435081E-01                            0.181226E-01                            0.360217E-05
                            0.250100E+01                            0.453200E-01                            0.181226E-01                            0.375281E-05
                            0.260100E+01                            0.471319E-01                            0.181226E-01                            0.390345E-05
                            0.270100E+01                            0.489438E-01                            0.181226E-01                            0.405409E-05
                            0.280100E+01                            0.507556E-01                            0.181226E-01                            0.420473E-05
                            0.290100E+01                            0.525674E-01                            0.181226E-01                            0.435536E-05
                            0.300100E+01                            0.543793E-01                            0.181226E-01                            0.450599E-05
                            0.310100E+01                            0.561911E-01                            0.181226E-01                            0.465663E-05
                            0.320100E+01                            0.580029E-01                            0.181226E-01                            0.480726E-05
                            0.330100E+01                            0.598146E-01                            0.181226E-01                            0.495789E-05
                            0.340100E+01                            0.616264E-01                            0.181226E-01                            0.510852E-05
                            0.350100E+01                            0.634381E-01                            0.181226E-01                            0.525914E-05
                            0.360100E+01                            0.652499E-01                            0.181226E-01                            0.540977E-05
                            0.370100E+01                            0.670616E-01                            0.181226E-01                            0.556039E-05
                            0.380100E+01                            0.688733E-01                            0.181226E-01                            0.571102E-05
                            0.390100E+01                            0.706850E-01                            0.181226E-01                            0.586164E-05
                            0.400100E+01                            0.724966E-01                            0.181226E-01                            0.601226E-05
                            0.410100E+01                            0.743083E-01                            0.181226E-01                            0.616288E-05
                            0.420100E+01                            0.761199E-01                            0.181226E-01                            0.631350E-05
                            0.430100E+01                            0.779316E-01                            0.181226E-01                            0.646412E-05
                            0.440100E+01                            0.797432E-01                            0.181226E-01                            0.661473E-05
                            0.450100E+01                            0.815548E-01                            0.181226E-01                            0.676535E-05
                            0.460100E+01                            0.833663E-01                            0.181226E-01                            0.691596E-05
                            0.470100E+01                            0.851779E-01                            0.181226E-01                            0.706657E-05
                            0.480100E+01                            0.869894E-01                            0.181226E-01                            0.721719E-05
                            0.490100E+01                            0.888010E-01                            0.181226E-01                            0.736780E-05
                            0.500100E+01                            0.906125E-01                            0.181226E-01                            0.751840E-05
                            0.510100E+01                            0.924240E-01                            0.181226E-01                            0.766901E-05
                            0.520100E+01                            0.942355E-01                            0.181226E-01                            0.781962E-05
                            0.530100E+01                            0.960470E-01                            0.181226E-01                            0.797022E-05
                            0.540100E+01                            0.978584E-01                            0.181226E-01                            0.812083E-05
                            0.550100E+01                            0.996699E-01                            0.181226E-01                            0.827143E-05
                            0.560100E+01                            0.101481E+00                            0.181226E-01                            0.842203E-05
                            0.570100E+01                            0.103293E+00                            0.181226E-01                            0.857263E-05
                            0.580100E+01                            0.105104E+00                            0.181226E-01                            0.872323E-05
                            0.590100E+01                            0.106915E+00                            0.181226E-01                            0.887383E-05
                            0.600100E+01                            0.108727E+00                            0.181226E-01                            0.902442E-05
                            0.610100E+01                            0.110538E+00                            0.181226E-01                            0.917502E-05
                            0.620100E+01                            0.112350E+00                            0.181226E-01                            0.932561E-05
                            0.630100E+01                            0.114161E+00                            0.181226E-01                            0.947620E-05
                            0.640100E+01                            0.115972E+00                            0.181226E-01                            0.962679E-05
                            0.650100E+01                            0.117783E+00                            0.181226E-01                            0.977738E-05
                            0.660100E+01                            0.119595E+00                            0.181226E-01                            0.992797E-05
                            0.670100E+01                            0.121406E+00                            0.181226E-01                            0.100786E-04
                            0.680100E+01                            0.123217E+00                            0.181226E-01                            0.102291E-04
                            0.690100E+01                            0.125028E+00                            0.181226E-01                            0.103797E-04
                            0.700100E+01                            0.126840E+00                            0.181226E-01                            0.105303E-04
                            0.710100E+01                            0.128651E+00                            0.181226E-01                            0.106809E-04
                            0.720100E+01                            0.130462E+00                            0.181226E-01                            0.108315E-04
                            0.730100E+01                            0.132273E+00                            0.181226E-01                            0.109821E-04
                            0.740100E+01                            0.134084E+00                            0.181226E-01                            0.111326E-04
                            0.750100E+01                            0.135896E+00                            0.181226E-01                            0.112832E-04
                            0.760100E+01                            0.137707E+00                            0.181226E-01                            0.114338E-04
                            0.770100E+01                            0.139518E+00                            0.181226E-01                            0.115844E-04
                            0.780100E+01                            0.141329E+00                            0.181226E-01                            0.117349E-04
                            0.790100E+01                            0.143140E+00                            0.181226E-01                            0.118855E-04
                            0.800100E+01                            0.144951E+00                            0.181226E-01                            0.120361E-04
                            0.810100E+01                            0.146762E+00                            0.181226E-01                            0.121867E-04
                            0.820100E+01                            0.148573E+00                            0.181226E-01                            0.123372E-04
                            0.830100E+01                            0.150384E+00                            0.181226E-01                            0.124878E-04
                            0.840100E+01                            0.152195E+00                            0.181226E-01                            0.126384E-04
                            0.850100E+01                            0.154006E+00                            0.181226E-01                            0.127889E-04
                            0.860100E+01                            0.155817E+00                            0.181226E-01                            0.129395E-04
                            0.870100E+01                            0.157628E+00                            0.181226E-01                            0.130900E-04
                            0.880100E+01                            0.159439E+00                            0.181226E-01                            0.132406E-04
                            0.890100E+01                            0.161250E+00                            0.181226E-01                            0.133912E-04
                            0.900100E+01                            0.163061E+00                            0.181226E-01                            0.135417E-04
                            0.910100E+01                            0.164872E+00                            0.181226E-01                            0.136923E-04
                            0.920100E+01                            0.166683E+00                            0.181226E-01                            0.138428E-04
                            0.930100E+01                            0.168494E+00                            0.181226E-01                            0.139934E-04
                            0.940100E+01                            0.170304E+00                            0.181226E-01                            0.141439E-04
                            0.950100E+01                            0.172115E+00                            0.181226E-01                            0.142945E-04
                            0.960100E+01                            0.173926E+00                            0.181226E-01                            0.144450E-04
                            0.970100E+01                            0.175737E+00                            0.181226E-01                            0.145956E-04
                            0.980100E+01                            0.177548E+00                            0.181226E-01                            0.147461E-04
                            0.990100E+01                            0.179358E+00                            0.181226E-01                            0.148967E-04
                            0.100010E+02                            0.181169E+00                            0.181226E-01                            0.150472E-04
