 # Time [s], Diffusion coefficient [m^2/s] 
                            0.000000E+00                            0.357592E-20
                            0.100000E-02                            0.357598E-20
                            0.101000E+00                            0.358245E-20
                            0.201000E+00                            0.358892E-20
                            0.301000E+00                            0.359538E-20
                            0.401000E+00                            0.360185E-20
                            0.501000E+00                            0.360832E-20
                            0.601000E+00                            0.361478E-20
                            0.701000E+00                            0.362125E-20
                            0.801000E+00                            0.362772E-20
                            0.901000E+00                            0.363418E-20
                            0.100100E+01                            0.364065E-20
                            0.110100E+01                            0.364712E-20
                            0.120100E+01                            0.365358E-20
                            0.130100E+01                            0.366005E-20
                            0.140100E+01                            0.366652E-20
                            0.150100E+01                            0.367298E-20
                            0.160100E+01                            0.367945E-20
                            0.170100E+01                            0.368591E-20
                            0.180100E+01                            0.369238E-20
                            0.190100E+01                            0.369885E-20
                            0.200100E+01                            0.370531E-20
                            0.210100E+01                            0.371178E-20
                            0.220100E+01                            0.371824E-20
                            0.230100E+01                            0.372471E-20
                            0.240100E+01                            0.373118E-20
                            0.250100E+01                            0.373764E-20
                            0.260100E+01                            0.374411E-20
                            0.270100E+01                            0.375057E-20
                            0.280100E+01                            0.375704E-20
                            0.290100E+01                            0.376350E-20
                            0.300100E+01                            0.376997E-20
                            0.310100E+01                            0.377644E-20
                            0.320100E+01                            0.378290E-20
                            0.330100E+01                            0.378937E-20
                            0.340100E+01                            0.379583E-20
                            0.350100E+01                            0.380230E-20
                            0.360100E+01                            0.380876E-20
                            0.370100E+01                            0.381523E-20
                            0.380100E+01                            0.382169E-20
                            0.390100E+01                            0.382816E-20
                            0.400100E+01                            0.383462E-20
                            0.410100E+01                            0.384109E-20
                            0.420100E+01                            0.384755E-20
                            0.430100E+01                            0.385402E-20
                            0.440100E+01                            0.386048E-20
                            0.450100E+01                            0.386695E-20
                            0.460100E+01                            0.387341E-20
                            0.470100E+01                            0.387988E-20
                            0.480100E+01                            0.388634E-20
                            0.490100E+01                            0.389281E-20
                            0.500100E+01                            0.389927E-20
                            0.510100E+01                            0.390573E-20
                            0.520100E+01                            0.391220E-20
                            0.530100E+01                            0.391866E-20
                            0.540100E+01                            0.392513E-20
                            0.550100E+01                            0.393159E-20
                            0.560100E+01                            0.393806E-20
                            0.570100E+01                            0.394452E-20
                            0.580100E+01                            0.395098E-20
                            0.590100E+01                            0.395745E-20
                            0.600100E+01                            0.396391E-20
                            0.610100E+01                            0.397037E-20
                            0.620100E+01                            0.397684E-20
                            0.630100E+01                            0.398330E-20
                            0.640100E+01                            0.398977E-20
                            0.650100E+01                            0.399623E-20
                            0.660100E+01                            0.400269E-20
                            0.670100E+01                            0.400916E-20
                            0.680100E+01                            0.401562E-20
                            0.690100E+01                            0.402208E-20
                            0.700100E+01                            0.402855E-20
                            0.710100E+01                            0.403501E-20
                            0.720100E+01                            0.404147E-20
                            0.730100E+01                            0.404794E-20
                            0.740100E+01                            0.405440E-20
                            0.750100E+01                            0.406086E-20
                            0.760100E+01                            0.406733E-20
                            0.770100E+01                            0.407379E-20
                            0.780100E+01                            0.408025E-20
                            0.790100E+01                            0.408671E-20
                            0.800100E+01                            0.409318E-20
                            0.810100E+01                            0.409964E-20
                            0.820100E+01                            0.410610E-20
                            0.830100E+01                            0.411257E-20
                            0.840100E+01                            0.411903E-20
                            0.850100E+01                            0.412549E-20
                            0.860100E+01                            0.413195E-20
                            0.870100E+01                            0.413842E-20
                            0.880100E+01                            0.414488E-20
                            0.890100E+01                            0.415134E-20
                            0.900100E+01                            0.415780E-20
                            0.910100E+01                            0.416427E-20
                            0.920100E+01                            0.417073E-20
                            0.930100E+01                            0.417719E-20
                            0.940100E+01                            0.418365E-20
                            0.950100E+01                            0.419011E-20
                            0.960100E+01                            0.419658E-20
                            0.970100E+01                            0.420304E-20
                            0.980100E+01                            0.420950E-20
                            0.990100E+01                            0.421596E-20
                            0.100010E+02                            0.422242E-20
                            0.101010E+02                            0.422888E-20
                            0.102010E+02                            0.423535E-20
                            0.103010E+02                            0.424181E-20
                            0.104010E+02                            0.424827E-20
                            0.105010E+02                            0.425473E-20
                            0.106010E+02                            0.426119E-20
                            0.107010E+02                            0.426765E-20
                            0.108010E+02                            0.427412E-20
                            0.109010E+02                            0.428058E-20
                            0.110010E+02                            0.428704E-20
                            0.111010E+02                            0.429350E-20
                            0.112010E+02                            0.429996E-20
                            0.113010E+02                            0.430642E-20
                            0.114010E+02                            0.431288E-20
                            0.115010E+02                            0.431934E-20
                            0.116010E+02                            0.432580E-20
                            0.117010E+02                            0.433226E-20
                            0.118010E+02                            0.433873E-20
                            0.119010E+02                            0.434519E-20
                            0.120010E+02                            0.435165E-20
                            0.121010E+02                            0.435811E-20
                            0.122010E+02                            0.436457E-20
                            0.123010E+02                            0.437103E-20
                            0.124010E+02                            0.437749E-20
                            0.125010E+02                            0.438395E-20
                            0.126010E+02                            0.439041E-20
                            0.127010E+02                            0.439687E-20
                            0.128010E+02                            0.440333E-20
                            0.129010E+02                            0.440979E-20
                            0.130010E+02                            0.441625E-20
                            0.131010E+02                            0.442271E-20
                            0.132010E+02                            0.442917E-20
                            0.133010E+02                            0.443563E-20
                            0.134010E+02                            0.444209E-20
                            0.135010E+02                            0.444855E-20
                            0.136010E+02                            0.445501E-20
                            0.137010E+02                            0.446147E-20
                            0.138010E+02                            0.446793E-20
                            0.139010E+02                            0.447439E-20
                            0.140010E+02                            0.448085E-20
                            0.141010E+02                            0.448731E-20
                            0.142010E+02                            0.449377E-20
                            0.143010E+02                            0.450023E-20
                            0.144010E+02                            0.450669E-20
                            0.145010E+02                            0.451315E-20
                            0.146010E+02                            0.451961E-20
                            0.147010E+02                            0.452607E-20
                            0.148010E+02                            0.453252E-20
                            0.149010E+02                            0.453898E-20
                            0.150010E+02                            0.454544E-20
                            0.151010E+02                            0.455190E-20
                            0.152010E+02                            0.455836E-20
                            0.153010E+02                            0.456482E-20
                            0.154010E+02                            0.457128E-20
                            0.155010E+02                            0.457774E-20
                            0.156010E+02                            0.458420E-20
                            0.157010E+02                            0.459065E-20
                            0.158010E+02                            0.459711E-20
                            0.159010E+02                            0.460357E-20
                            0.160010E+02                            0.461003E-20
                            0.161010E+02                            0.461649E-20
                            0.162010E+02                            0.462295E-20
                            0.163010E+02                            0.462941E-20
                            0.164010E+02                            0.463586E-20
                            0.165010E+02                            0.464232E-20
                            0.166010E+02                            0.464878E-20
                            0.167010E+02                            0.465524E-20
                            0.168010E+02                            0.466170E-20
                            0.169010E+02                            0.466815E-20
                            0.170010E+02                            0.467461E-20
                            0.171010E+02                            0.468107E-20
                            0.172010E+02                            0.468753E-20
                            0.173010E+02                            0.469399E-20
                            0.174010E+02                            0.470044E-20
                            0.175010E+02                            0.470690E-20
                            0.176010E+02                            0.471336E-20
                            0.177010E+02                            0.471982E-20
                            0.178010E+02                            0.472627E-20
                            0.179010E+02                            0.473273E-20
                            0.180010E+02                            0.473919E-20
                            0.181010E+02                            0.474565E-20
                            0.182010E+02                            0.475210E-20
                            0.183010E+02                            0.475856E-20
                            0.184010E+02                            0.476502E-20
                            0.185010E+02                            0.477148E-20
                            0.186010E+02                            0.477793E-20
                            0.187010E+02                            0.478439E-20
                            0.188010E+02                            0.479085E-20
                            0.189010E+02                            0.479730E-20
                            0.190010E+02                            0.480376E-20
                            0.191010E+02                            0.481022E-20
                            0.192010E+02                            0.481667E-20
                            0.193010E+02                            0.482313E-20
                            0.194010E+02                            0.482959E-20
                            0.195010E+02                            0.483605E-20
                            0.196010E+02                            0.484250E-20
                            0.197010E+02                            0.484896E-20
                            0.198010E+02                            0.485541E-20
                            0.199010E+02                            0.486187E-20
                            0.200010E+02                            0.486833E-20
                            0.201010E+02                            0.487478E-20
                            0.202010E+02                            0.488124E-20
                            0.203010E+02                            0.488770E-20
                            0.204010E+02                            0.489415E-20
                            0.205010E+02                            0.490061E-20
                            0.206010E+02                            0.490706E-20
                            0.207010E+02                            0.491352E-20
                            0.208010E+02                            0.491998E-20
                            0.209010E+02                            0.492643E-20
                            0.210010E+02                            0.493289E-20
                            0.211010E+02                            0.493934E-20
                            0.212010E+02                            0.494580E-20
                            0.213010E+02                            0.495226E-20
                            0.214010E+02                            0.495871E-20
                            0.215010E+02                            0.496517E-20
                            0.216010E+02                            0.497162E-20
                            0.217010E+02                            0.497808E-20
                            0.218010E+02                            0.498453E-20
                            0.219010E+02                            0.499099E-20
                            0.220010E+02                            0.499744E-20
                            0.221010E+02                            0.500390E-20
                            0.222010E+02                            0.501035E-20
                            0.223010E+02                            0.501681E-20
                            0.224010E+02                            0.502326E-20
                            0.225010E+02                            0.502972E-20
                            0.226010E+02                            0.503617E-20
                            0.227010E+02                            0.504263E-20
                            0.228010E+02                            0.504908E-20
                            0.229010E+02                            0.505554E-20
                            0.230010E+02                            0.506199E-20
                            0.231010E+02                            0.506845E-20
                            0.232010E+02                            0.507490E-20
                            0.233010E+02                            0.508136E-20
                            0.234010E+02                            0.508781E-20
                            0.235010E+02                            0.509427E-20
                            0.236010E+02                            0.510072E-20
                            0.237010E+02                            0.510718E-20
                            0.238010E+02                            0.511363E-20
                            0.239010E+02                            0.512008E-20
                            0.240010E+02                            0.512654E-20
                            0.241010E+02                            0.513299E-20
                            0.242010E+02                            0.513945E-20
                            0.243010E+02                            0.514590E-20
                            0.244010E+02                            0.515236E-20
