  # Bin [m], Precipitate density distribution [/m^4]
                            0.588844E-09                            0.104619E+00
                            0.691831E-09                            0.935107E-01
                            0.812831E-09                            0.849903E-01
                            0.954993E-09                            0.783527E-01
                            0.112202E-08                            0.731132E-01
                            0.131826E-08                            0.689306E-01
                            0.154882E-08                            0.655597E-01
                            0.181970E-08                            0.628207E-01
                            0.213796E-08                            0.605799E-01
                            0.251189E-08                            0.587356E-01
                            0.295121E-08                            0.572103E-01
                            0.346737E-08                            0.559432E-01
                            0.407380E-08                            0.548869E-01
                            0.478630E-08                            0.540035E-01
                            0.562341E-08                            0.532629E-01
                            0.660693E-08                            0.526405E-01
                            0.776247E-08                            0.521165E-01
                            0.912011E-08                            0.516746E-01
                            0.107152E-07                            0.513015E-01
                            0.125893E-07                            0.509860E-01
                            0.147911E-07                            0.507190E-01
                            0.173780E-07                            0.504929E-01
                            0.204174E-07                            0.503012E-01
                            0.239883E-07                            0.501386E-01
                            0.281838E-07                            0.500007E-01
                            0.331131E-07                            0.498835E-01
                            0.389045E-07                            0.497841E-01
                            0.457088E-07                            0.496996E-01
                            0.537032E-07                            0.496277E-01
                            0.630957E-07                            0.495667E-01
                            0.741310E-07                            0.495148E-01
                            0.870964E-07                            0.494707E-01
                            0.102329E-06                            0.494331E-01
                            0.120226E-06                            0.494012E-01
                            0.141254E-06                            0.493741E-01
                            0.165959E-06                            0.493510E-01
                            0.194984E-06                            0.493313E-01
                            0.229087E-06                            0.493146E-01
                            0.269153E-06                            0.493004E-01
                            0.316228E-06                            0.492883E-01
                            0.371535E-06                            0.492780E-01
                            0.436516E-06                            0.492692E-01
                            0.512861E-06                            0.492617E-01
                            0.602560E-06                            0.492554E-01
                            0.707946E-06                            0.492500E-01
                            0.831764E-06                            0.492454E-01
                            0.977237E-06                            0.492415E-01
                            0.114815E-05                            0.492382E-01
                            0.134896E-05                            0.492353E-01
                            0.158489E-05                            0.492329E-01
                            0.186209E-05                            0.492309E-01
                            0.218776E-05                            0.492291E-01
                            0.257040E-05                            0.492276E-01
                            0.301995E-05                            0.492264E-01
                            0.354813E-05                            0.492253E-01
                            0.416869E-05                            0.492244E-01
                            0.489779E-05                            0.492236E-01
                            0.575440E-05                            0.492229E-01
                            0.676083E-05                            0.492224E-01
                            0.794328E-05                            0.492219E-01
                            0.933254E-05                            0.492215E-01
                            0.109648E-04                            0.492211E-01
                            0.128825E-04                            0.492208E-01
                            0.151356E-04                            0.492206E-01
                            0.177828E-04                            0.492203E-01
                            0.208930E-04                            0.492202E-01
                            0.245471E-04                            0.492200E-01
                            0.288403E-04                            0.492199E-01
                            0.338844E-04                            0.492198E-01
                            0.398107E-04                            0.492197E-01
