  # Bin [m], Precipitate density distribution [/m^4]
                            0.350000E-07                            0.804100E-01
                            0.400000E-07                            0.803722E-01
                            0.450000E-07                            0.803438E-01
                            0.500000E-07                            0.803218E-01
                            0.550000E-07                            0.803042E-01
                            0.600000E-07                            0.802897E-01
                            0.650000E-07                            0.802777E-01
                            0.700000E-07                            0.802675E-01
                            0.750000E-07                            0.802588E-01
                            0.800000E-07                            0.802513E-01
                            0.850000E-07                            0.802447E-01
                            0.900000E-07                            0.802388E-01
                            0.950000E-07                            0.802336E-01
                            0.100000E-06                            0.802290E-01
                            0.105000E-06                            0.802248E-01
                            0.110000E-06                            0.802211E-01
                            0.115000E-06                            0.802176E-01
                            0.120000E-06                            0.802145E-01
                            0.125000E-06                            0.802116E-01
                            0.130000E-06                            0.802090E-01
                            0.135000E-06                            0.802065E-01
                            0.140000E-06                            0.802043E-01
                            0.145000E-06                            0.802022E-01
                            0.150000E-06                            0.802002E-01
                            0.155000E-06                            0.801984E-01
                            0.160000E-06                            0.801967E-01
                            0.165000E-06                            0.801951E-01
                            0.170000E-06                            0.801936E-01
                            0.175000E-06                            0.801922E-01
                            0.180000E-06                            0.801909E-01
                            0.185000E-06                            0.801896E-01
                            0.190000E-06                            0.801884E-01
                            0.195000E-06                            0.801873E-01
                            0.200000E-06                            0.801862E-01
                            0.205000E-06                            0.801852E-01
                            0.210000E-06                            0.801842E-01
                            0.215000E-06                            0.801833E-01
                            0.220000E-06                            0.801824E-01
                            0.225000E-06                            0.801816E-01
                            0.230000E-06                            0.801808E-01
                            0.235000E-06                            0.801800E-01
                            0.240000E-06                            0.801793E-01
                            0.245000E-06                            0.801786E-01
                            0.250000E-06                            0.801779E-01
                            0.255000E-06                            0.801773E-01
                            0.260000E-06                            0.801766E-01
                            0.265000E-06                            0.801761E-01
                            0.270000E-06                            0.801755E-01
                            0.275000E-06                            0.801749E-01
                            0.280000E-06                            0.801744E-01
                            0.285000E-06                            0.801739E-01
                            0.290000E-06                            0.801734E-01
                            0.295000E-06                            0.801729E-01
                            0.300000E-06                            0.801724E-01
                            0.305000E-06                            0.801720E-01
                            0.310000E-06                            0.801716E-01
                            0.315000E-06                            0.801711E-01
                            0.320000E-06                            0.801707E-01
                            0.325000E-06                            0.801703E-01
                            0.330000E-06                            0.801700E-01
                            0.335000E-06                            0.801696E-01
                            0.340000E-06                            0.801692E-01
                            0.345000E-06                            0.801689E-01
                            0.350000E-06                            0.801685E-01
                            0.355000E-06                            0.801682E-01
                            0.360000E-06                            0.801679E-01
                            0.365000E-06                            0.801676E-01
                            0.370000E-06                            0.801673E-01
                            0.375000E-06                            0.801670E-01
                            0.380000E-06                            0.801667E-01
                            0.385000E-06                            0.801664E-01
                            0.390000E-06                            0.801662E-01
                            0.395000E-06                            0.801659E-01
                            0.400000E-06                            0.801656E-01
                            0.405000E-06                            0.801654E-01
                            0.410000E-06                            0.801651E-01
                            0.415000E-06                            0.801649E-01
                            0.420000E-06                            0.801647E-01
                            0.425000E-06                            0.801644E-01
                            0.430000E-06                            0.801642E-01
                            0.435000E-06                            0.801640E-01
                            0.440000E-06                            0.801638E-01
                            0.445000E-06                            0.801636E-01
                            0.450000E-06                            0.801634E-01
                            0.455000E-06                            0.801632E-01
                            0.460000E-06                            0.801630E-01
                            0.465000E-06                            0.801628E-01
                            0.470000E-06                            0.801626E-01
                            0.475000E-06                            0.801624E-01
                            0.480000E-06                            0.801623E-01
                            0.485000E-06                            0.801621E-01
                            0.490000E-06                            0.801619E-01
                            0.495000E-06                            0.801617E-01
                            0.500000E-06                            0.801616E-01
                            0.505000E-06                            0.801614E-01
                            0.510000E-06                            0.801613E-01
                            0.515000E-06                            0.801611E-01
                            0.520000E-06                            0.801610E-01
                            0.525000E-06                            0.801608E-01
                            0.530000E-06                            0.801607E-01
                            0.535000E-06                            0.801605E-01
                            0.540000E-06                            0.801604E-01
                            0.545000E-06                            0.801603E-01
                            0.550000E-06                            0.801601E-01
                            0.555000E-06                            0.801600E-01
                            0.560000E-06                            0.801599E-01
                            0.565000E-06                            0.801597E-01
                            0.570000E-06                            0.801596E-01
                            0.575000E-06                            0.801595E-01
                            0.580000E-06                            0.801594E-01
                            0.585000E-06                            0.801592E-01
                            0.590000E-06                            0.801591E-01
                            0.595000E-06                            0.801590E-01
                            0.600000E-06                            0.801589E-01
                            0.605000E-06                            0.801588E-01
                            0.610000E-06                            0.801587E-01
                            0.615000E-06                            0.801586E-01
                            0.620000E-06                            0.801585E-01
                            0.625000E-06                            0.801584E-01
                            0.630000E-06                            0.801583E-01
                            0.635000E-06                            0.801582E-01
                            0.640000E-06                            0.801581E-01
                            0.645000E-06                            0.801580E-01
                            0.650000E-06                            0.801579E-01
                            0.655000E-06                            0.801578E-01
                            0.660000E-06                            0.801577E-01
                            0.665000E-06                            0.801576E-01
                            0.670000E-06                            0.801575E-01
                            0.675000E-06                            0.801574E-01
                            0.680000E-06                            0.801573E-01
                            0.685000E-06                            0.801572E-01
                            0.690000E-06                            0.801571E-01
                            0.695000E-06                            0.801571E-01
                            0.700000E-06                            0.801570E-01
                            0.705000E-06                            0.801569E-01
                            0.710000E-06                            0.801568E-01
                            0.715000E-06                            0.801567E-01
                            0.720000E-06                            0.801567E-01
                            0.725000E-06                            0.801566E-01
                            0.730000E-06                            0.801565E-01
                            0.735000E-06                            0.801564E-01
                            0.740000E-06                            0.801564E-01
                            0.745000E-06                            0.801563E-01
                            0.750000E-06                            0.801562E-01
                            0.755000E-06                            0.801561E-01
                            0.760000E-06                            0.801561E-01
                            0.765000E-06                            0.801560E-01
                            0.770000E-06                            0.801559E-01
                            0.775000E-06                            0.801559E-01
                            0.780000E-06                            0.801558E-01
                            0.785000E-06                            0.801557E-01
                            0.790000E-06                            0.801557E-01
                            0.795000E-06                            0.801556E-01
                            0.800000E-06                            0.801555E-01
                            0.805000E-06                            0.801555E-01
                            0.810000E-06                            0.801554E-01
                            0.815000E-06                            0.801554E-01
                            0.820000E-06                            0.801553E-01
                            0.825000E-06                            0.801552E-01
                            0.830000E-06                            0.801552E-01
                            0.835000E-06                            0.801551E-01
                            0.840000E-06                            0.801551E-01
                            0.845000E-06                            0.801550E-01
                            0.850000E-06                            0.801550E-01
                            0.855000E-06                            0.801549E-01
                            0.860000E-06                            0.801548E-01
                            0.865000E-06                            0.801548E-01
                            0.870000E-06                            0.801547E-01
                            0.875000E-06                            0.801547E-01
                            0.880000E-06                            0.801546E-01
                            0.885000E-06                            0.801546E-01
                            0.890000E-06                            0.801545E-01
                            0.895000E-06                            0.801545E-01
                            0.900000E-06                            0.801544E-01
                            0.905000E-06                            0.801544E-01
                            0.910000E-06                            0.801543E-01
                            0.915000E-06                            0.801543E-01
                            0.920000E-06                            0.801542E-01
                            0.925000E-06                            0.801542E-01
                            0.930000E-06                            0.801541E-01
                            0.935000E-06                            0.801541E-01
                            0.940000E-06                            0.801541E-01
                            0.945000E-06                            0.801540E-01
                            0.950000E-06                            0.801540E-01
                            0.955000E-06                            0.801539E-01
                            0.960000E-06                            0.801539E-01
                            0.965000E-06                            0.801538E-01
                            0.970000E-06                            0.801538E-01
                            0.975000E-06                            0.801537E-01
                            0.980000E-06                            0.801537E-01
                            0.985000E-06                            0.801537E-01
                            0.990000E-06                            0.801536E-01
                            0.995000E-06                            0.801536E-01
                            0.100000E-05                            0.801535E-01
                            0.100500E-05                            0.801535E-01
                            0.101000E-05                            0.801535E-01
                            0.101500E-05                            0.801534E-01
                            0.102000E-05                            0.801534E-01
                            0.102500E-05                            0.801533E-01
                            0.103000E-05                            0.801533E-01
                            0.103500E-05                            0.801533E-01
                            0.104000E-05                            0.801532E-01
                            0.104500E-05                            0.801532E-01
                            0.105000E-05                            0.801532E-01
                            0.105500E-05                            0.801531E-01
                            0.106000E-05                            0.801531E-01
                            0.106500E-05                            0.801531E-01
                            0.107000E-05                            0.801530E-01
                            0.107500E-05                            0.801530E-01
                            0.108000E-05                            0.801530E-01
                            0.108500E-05                            0.801529E-01
                            0.109000E-05                            0.801529E-01
                            0.109500E-05                            0.801528E-01
                            0.110000E-05                            0.801528E-01
                            0.110500E-05                            0.801528E-01
                            0.111000E-05                            0.801528E-01
                            0.111500E-05                            0.801527E-01
                            0.112000E-05                            0.801527E-01
                            0.112500E-05                            0.801527E-01
                            0.113000E-05                            0.801526E-01
                            0.113500E-05                            0.801526E-01
                            0.114000E-05                            0.801526E-01
                            0.114500E-05                            0.801525E-01
                            0.115000E-05                            0.801525E-01
                            0.115500E-05                            0.801525E-01
                            0.116000E-05                            0.801524E-01
                            0.116500E-05                            0.801524E-01
                            0.117000E-05                            0.801524E-01
                            0.117500E-05                            0.801524E-01
                            0.118000E-05                            0.801523E-01
                            0.118500E-05                            0.801523E-01
                            0.119000E-05                            0.801523E-01
                            0.119500E-05                            0.801522E-01
                            0.120000E-05                            0.801522E-01
                            0.120500E-05                            0.801522E-01
                            0.121000E-05                            0.801522E-01
                            0.121500E-05                            0.801521E-01
                            0.122000E-05                            0.801521E-01
                            0.122500E-05                            0.801521E-01
                            0.123000E-05                            0.801520E-01
                            0.123500E-05                            0.801520E-01
                            0.124000E-05                            0.801520E-01
                            0.124500E-05                            0.801520E-01
                            0.125000E-05                            0.801519E-01
                            0.125500E-05                            0.801519E-01
                            0.126000E-05                            0.801519E-01
