  # Bin [m], Precipitate density distribution [/m^4]
                            0.512861E-09                            0.000000E+00
                            0.524807E-09                            0.227491E-02
                            0.537032E-09                            0.299770E-02
                            0.549541E-09                            0.389813E-02
                            0.562341E-09                            0.500227E-02
                            0.575440E-09                            0.633465E-02
                            0.588844E-09                            0.791627E-02
                            0.602560E-09                            0.976254E-02
                            0.616595E-09                            0.118809E-01
                            0.630957E-09                            0.142685E-01
                            0.645654E-09                            0.169102E-01
                            0.660693E-09                            0.197772E-01
                            0.676083E-09                            0.228258E-01
                            0.691831E-09                            0.259973E-01
                            0.707946E-09                            0.292197E-01
                            0.724436E-09                            0.324090E-01
                            0.741310E-09                            0.354731E-01
                            0.758578E-09                            0.383157E-01
                            0.776247E-09                            0.408411E-01
                            0.794328E-09                            0.429598E-01
                            0.812831E-09                            0.445933E-01
                            0.831764E-09                            0.456795E-01
                            0.851138E-09                            0.461760E-01
                            0.870964E-09                            0.460633E-01
                            0.891251E-09                            0.453458E-01
                            0.912011E-09                            0.440517E-01
                            0.933254E-09                            0.422310E-01
                            0.954993E-09                            0.399525E-01
                            0.977237E-09                            0.372993E-01
                            0.100000E-08                            0.343637E-01
                            0.102329E-08                            0.312424E-01
                            0.104713E-08                            0.280305E-01
                            0.107152E-08                            0.248177E-01
                            0.109648E-08                            0.216838E-01
                            0.112202E-08                            0.186962E-01
                            0.114815E-08                            0.159079E-01
                            0.117490E-08                            0.133573E-01
                            0.120226E-08                            0.110679E-01
                            0.123027E-08                            0.905019E-02
                            0.125893E-08                            0.730285E-02
                            0.128825E-08                            0.581529E-02
                            0.131826E-08                            0.456976E-02
                            0.134896E-08                            0.354372E-02
                            0.138038E-08                            0.271187E-02
                            0.141254E-08                            0.204796E-02
                            0.144544E-08                            0.152622E-02
                            0.147911E-08                            0.112243E-02
                            0.151356E-08                            0.814594E-03
                            0.154882E-08                            0.583402E-03
                            0.158489E-08                            0.412324E-03
                            0.162181E-08                            0.287576E-03
                            0.165959E-08                            0.197929E-03
                            0.169824E-08                            0.134435E-03
                            0.173780E-08                            0.901065E-04
                            0.177828E-08                            0.595997E-04
                            0.181970E-08                            0.389024E-04
                            0.186209E-08                            0.250583E-04
                            0.190546E-08                            0.159283E-04
                            0.194984E-08                            0.999154E-05
                            0.199526E-08                            0.618498E-05
                            0.204174E-08                            0.377822E-05
                            0.208930E-08                            0.227762E-05
                            0.213796E-08                            0.135493E-05
                            0.218776E-08                            0.795421E-06
                            0.223872E-08                            0.460809E-06
                            0.229087E-08                            0.263444E-06
                            0.234423E-08                            0.148627E-06
                            0.239883E-08                            0.827471E-07
                            0.245471E-08                            0.454622E-07
                            0.251189E-08                            0.246486E-07
                            0.257040E-08                            0.131879E-07
                            0.263027E-08                            0.696313E-08
                            0.269153E-08                            0.362808E-08
                            0.275423E-08                            0.186549E-08
                            0.281838E-08                            0.946566E-09
                            0.288403E-08                            0.473973E-09
                            0.295121E-08                            0.234207E-09
                            0.301995E-08                            0.114206E-09
                            0.309030E-08                            0.549569E-10
                            0.316228E-08                            0.260975E-10
                            0.323594E-08                            0.122298E-10
                            0.331131E-08                            0.565565E-11
                            0.338844E-08                            0.258101E-11
                            0.346737E-08                            0.116236E-11
                            0.354813E-08                            0.516577E-12
                            0.363078E-08                            0.226555E-12
                            0.371535E-08                            0.980515E-13
                            0.380189E-08                            0.418773E-13
                            0.389045E-08                            0.176501E-13
                            0.398107E-08                            0.734107E-14
                            0.407380E-08                            0.301311E-14
                            0.416869E-08                            0.122043E-14
                            0.426580E-08                            0.487817E-15
                            0.436516E-08                            0.192417E-15
                            0.446684E-08                            0.748984E-16
                            0.457088E-08                            0.287704E-16
                            0.467735E-08                            0.109059E-16
                            0.478630E-08                            0.407965E-17
                            0.489779E-08                            0.150601E-17
                            0.501187E-08                            0.548623E-18
